#Time		#Wave		#Intensity
0.000000	2533.650391	94.094452
0.000000	2532.827148	203.365433
0.000000	2532.002930	145.668991
0.000000	2531.178711	133.506393
0.000000	2530.354492	139.550262
0.000000	2529.530273	142.558838
0.000000	2528.706055	112.207367
0.000000	2527.881836	148.572723
0.000000	2527.057617	127.325562
0.000000	2526.232422	124.272049
0.000000	2525.407227	121.219597
0.000000	2524.582031	133.317978
0.000000	2523.756836	121.176720
0.000000	2522.931641	148.415207
0.000000	2522.106445	136.275543
0.000000	2521.280273	130.195786
0.000000	2520.455078	151.363602
0.000000	2519.628906	121.069412
0.000000	2518.802734	121.047928
0.000000	2517.976563	169.437012
0.000000	2517.149414	148.231064
0.000000	2516.323242	130.057205
0.000000	2515.497070	148.178375
0.000000	2514.669922	139.081482
0.000000	2513.842773	142.079712
0.000000	2513.015625	154.144150
0.000000	2512.188477	117.853943
0.000000	2511.361328	132.939728
0.000000	2510.533203	138.957672
0.000000	2509.705078	151.013992
0.000000	2508.877930	172.125229
0.000000	2508.049805	132.844879
0.000000	2507.221680	111.690514
0.000000	2506.393555	147.888031
0.000000	2505.564453	150.879166
0.000000	2504.736328	174.988525
0.000000	2503.907227	180.990219
0.000000	2503.078125	156.830093
0.000000	2502.249023	168.863693
0.000000	2501.419922	171.848312
0.000000	2500.590820	162.774475
0.000000	2499.760742	138.634857
0.000000	2498.931641	144.636505
0.000000	2498.101563	132.559647
0.000000	2497.271484	138.560196
0.000000	2496.441406	159.616745
0.000000	2495.611328	147.543671
0.000000	2494.781250	117.411591
0.000000	2493.950195	129.430496
0.000000	2493.119141	120.378784
0.000000	2492.289063	171.508865
0.000000	2491.458008	132.368942
0.000000	2490.626953	93.243126
0.000000	2489.794922	186.452606
0.000000	2488.963867	108.243263
0.000000	2488.131836	132.273438
0.000000	2487.300781	138.260880
0.000000	2486.468750	153.261536
0.000000	2485.636719	117.178802
0.000000	2484.804688	123.165688
0.000000	2483.971680	120.139900
0.000000	2483.139648	162.159500
0.000000	2482.306641	156.125305
0.000000	2481.473633	147.091415
0.000000	2480.640625	90.039635
0.000000	2479.807617	159.041168
0.000000	2478.974609	123.009521
0.000000	2478.141602	149.984375
0.000000	2477.307617	80.976852
0.000000	2476.473633	179.915863
0.000000	2475.639648	143.906525
0.000000	2474.805664	125.895302
0.000000	2473.971680	122.875427
0.000000	2473.137695	143.827972
0.000000	2472.302734	143.801773
0.000000	2471.468750	185.710114
0.000000	2470.633789	110.806801
0.000000	2469.798828	161.688538
0.000000	2468.963867	131.722183
0.000000	2468.127930	149.656967
0.000000	2467.292969	149.629639
0.000000	2466.457031	110.705704
0.000000	2465.622070	146.583450
0.000000	2464.786133	146.556641
0.000000	2463.950195	134.568222
0.000000	2463.113281	116.604439
0.000000	2462.277344	203.273071
0.000000	2461.440430	131.505539
0.000000	2460.604492	71.717148
0.000000	2459.767578	158.346329
0.000000	2458.930664	167.278641
0.000000	2458.093750	155.301666
0.000000	2457.255859	146.315079
0.000000	2456.418945	149.273682
0.000000	2455.581055	128.351776
0.000000	2454.743164	143.250061
0.000000	2453.905273	152.175201
0.000000	2453.067383	146.180649
0.000000	2452.229492	140.188278
0.000000	2451.391602	113.322838
0.000000	2450.552734	163.989685
0.000000	2449.713867	113.281082
0.000000	2448.875000	65.571693
0.000000	2448.036133	116.219276
0.000000	2447.197266	145.992142
0.000000	2446.358398	131.070786
0.000000	2445.518555	175.721542
0.000000	2444.678711	142.933487
0.000000	2443.839844	133.975372
0.000000	2443.000000	136.927261
0.000000	2442.159180	142.854187
0.000000	2441.319336	121.998703
0.000000	2440.479492	124.951134
0.000000	2439.638672	148.723785
0.000000	2438.797852	148.696228
0.000000	2437.957031	148.668655
0.000000	2437.116211	181.342117
0.000000	2436.275391	112.946251
0.000000	2435.433594	130.755600
0.000000	2434.592773	118.846642
0.000000	2433.750977	136.648239
0.000000	2432.909180	89.101852
0.000000	2432.067383	154.414490
0.000000	2431.225586	136.572021
0.000000	2430.382813	175.135849
0.000000	2429.541016	136.521179
0.000000	2428.698242	124.626549
0.000000	2427.855469	142.403793
0.000000	2427.012695	127.546288
0.000000	2426.169922	130.488129
0.000000	2425.326172	177.905167
0.000000	2424.483398	163.049286
0.000000	2423.639648	171.910782
0.000000	2422.795898	154.098114
0.000000	2421.952148	145.180695
0.000000	2421.108398	162.927460
0.000000	2420.264648	151.049927
0.000000	2419.419922	153.982864
0.000000	2418.575195	133.229462
0.000000	2417.731445	127.284309
0.000000	2416.886719	159.815460
0.000000	2416.041016	130.195602
0.000000	2415.196289	177.506165
0.000000	2414.351563	115.357361
0.000000	2413.505859	165.610245
0.000000	2412.660156	162.622391
0.000000	2411.814453	153.723190
0.000000	2410.968750	159.605637
0.000000	2410.123047	109.338860
0.000000	2409.276367	121.136490
0.000000	2408.430664	147.699631
0.000000	2407.583984	153.578720
0.000000	2406.737305	165.361328
0.000000	2405.890625	159.425522
0.000000	2405.043945	144.636642
0.000000	2404.196289	165.267868
0.000000	2403.348633	129.828827
0.000000	2402.501953	138.654633
0.000000	2401.654297	194.669769
0.000000	2400.806641	147.449249
0.000000	2399.958008	159.215103
0.000000	2399.110352	129.706314
0.000000	2398.261719	103.155975
0.000000	2397.414063	185.645645
0.000000	2396.565430	129.632751
0.000000	2395.716797	167.901550
0.000000	2394.867188	117.803337
0.000000	2394.018555	179.616074
0.000000	2393.168945	147.198395
0.000000	2392.320313	164.830948
0.000000	2391.470703	129.485474
0.000000	2390.621094	191.249069
0.000000	2389.770508	179.445831
0.000000	2388.920898	194.117645
0.000000	2388.071289	182.318298
0.000000	2387.220703	120.542419
0.000000	2386.370117	161.672516
0.000000	2385.519531	108.740829
0.000000	2384.668945	143.980728
0.000000	2383.817383	152.766800
0.000000	2382.966797	143.925934
0.000000	2382.115234	132.151703
0.000000	2381.263672	137.998810
0.000000	2380.412109	167.328369
0.000000	2379.560547	117.401024
0.000000	2378.708008	152.592224
0.000000	2377.856445	187.769974
0.000000	2377.003906	161.334015
0.000000	2376.151367	146.639282
0.000000	2375.298828	137.814590
0.000000	2374.446289	167.104904
0.000000	2373.593750	155.348541
0.000000	2372.740234	149.457748
0.000000	2371.886719	146.499176
0.000000	2371.033203	137.682861
0.000000	2370.179688	125.941055
0.000000	2369.326172	175.698044
0.000000	2368.472656	114.181847
0.000000	2367.618164	172.703522
0.000000	2366.763672	128.771149
0.000000	2365.909180	190.193619
0.000000	2365.054688	137.498230
0.000000	2364.200195	146.246628
0.000000	2363.345703	128.672318
0.000000	2362.490234	128.647598
0.000000	2361.634766	125.699623
0.000000	2360.780273	105.216660
0.000000	2359.923828	122.729164
0.000000	2359.068359	140.234909
0.000000	2358.212891	148.970917
0.000000	2357.356445	151.862671
0.000000	2356.500000	178.112274
0.000000	2355.644531	148.884842
0.000000	2354.787109	189.718613
0.000000	2353.930664	189.682037
0.000000	2353.074219	166.304459
0.000000	2352.216797	160.438248
0.000000	2351.359375	186.655746
0.000000	2350.502930	154.544434
0.000000	2349.644531	148.683838
0.000000	2348.787109	169.058746
0.000000	2347.929688	134.055145
0.000000	2347.071289	171.907043
0.000000	2346.212891	145.655746
0.000000	2345.354492	160.190323
0.000000	2344.496094	171.807251
0.000000	2343.637695	98.988388
0.000000	2342.778320	157.186401
0.000000	2341.919922	151.335342
0.000000	2341.060547	151.306000
0.000000	2340.201172	160.004135
0.000000	2339.341797	148.338684
0.000000	2338.482422	119.229523
0.000000	2337.622070	159.910980
0.000000	2336.761719	124.997032
0.000000	2335.902344	130.785431
0.000000	2335.041992	159.817780
0.000000	2334.180664	145.260635
0.000000	2333.320313	145.232376
0.000000	2332.459961	139.395950
0.000000	2331.598633	162.596954
0.000000	2330.737305	185.788895
0.000000	2329.875977	162.533615
0.000000	2329.014648	162.501938
0.000000	2328.152344	159.569016
0.000000	2327.291016	153.736511
0.000000	2326.428711	136.305786
0.000000	2325.566406	136.279175
0.000000	2324.704102	179.737442
0.000000	2323.841797	214.483429
0.000000	2322.978516	162.280075
0.000000	2322.116211	168.042953
0.000000	2321.252930	147.733017
0.000000	2320.389648	156.392593
0.000000	2319.526367	110.032524
0.000000	2318.663086	165.016479
0.000000	2317.798828	147.617416
0.000000	2316.935547	176.527435
0.000000	2316.071289	130.199646
0.000000	2315.207031	196.707565
0.000000	2314.342773	133.040787
0.000000	2313.478516	185.063934
0.000000	2312.613281	138.770721
0.000000	2311.748047	184.991318
0.000000	2310.883789	130.046478
0.000000	2310.018555	158.914490
0.000000	2309.152344	112.662674
0.000000	2308.287109	141.522720
0.000000	2307.420898	164.596115
0.000000	2306.555664	216.531235
0.000000	2305.689453	158.758331
0.000000	2304.823242	135.639511
0.000000	2303.957031	158.695847
0.000000	2303.089844	129.816483
0.000000	2302.223633	173.054535
0.000000	2301.356445	158.602066
0.000000	2300.489258	129.739746
0.000000	2299.622070	167.187134
0.000000	2298.754883	123.924637
0.000000	2297.886719	149.832779
0.000000	2297.018555	149.803192
0.000000	2296.151367	158.414398
0.000000	2295.283203	169.901871
0.000000	2294.414063	172.747421
0.000000	2293.545898	112.263634
0.000000	2292.677734	164.045166
0.000000	2291.808594	155.380478
0.000000	2290.939453	138.088638
0.000000	2290.070313	209.968246
0.000000	2289.201172	143.785385
0.000000	2288.331055	163.882874
0.000000	2287.461914	158.101273
0.000000	2286.591797	158.069931
0.000000	2285.721680	166.658875
0.000000	2284.851563	172.371536
0.000000	2283.981445	163.720474
0.000000	2283.110352	155.072815
0.000000	2282.240234	146.428589
0.000000	2281.369141	163.622971
0.000000	2280.498047	152.110428
0.000000	2279.626953	172.166260
0.000000	2278.754883	200.820709
0.000000	2277.883789	174.966095
0.000000	2277.011719	166.328110
0.000000	2276.139648	180.630798
0.000000	2275.267578	108.930222
0.000000	2274.395508	183.424881
0.000000	2273.523438	189.119232
0.000000	2272.650391	169.027451
0.000000	2271.777344	123.164940
0.000000	2270.904297	186.142441
0.000000	2270.031250	171.789520
0.000000	2269.158203	168.892654
0.000000	2268.285156	174.582977
0.000000	2267.411133	191.716782
0.000000	2266.537109	160.208893
0.000000	2265.663086	177.338684
0.000000	2264.789063	154.425415
0.000000	2263.914063	160.112854
0.000000	2263.040039	151.505066
0.000000	2262.165039	185.770935
0.000000	2261.290039	185.733765
0.000000	2260.415039	182.839706
0.000000	2259.540039	165.665314
0.000000	2258.665039	208.468018
0.000000	2257.789063	188.440170
0.000000	2256.913086	171.274902
0.000000	2256.037109	182.656601
0.000000	2255.161133	194.033722
0.000000	2254.285156	205.406250
0.000000	2253.408203	196.808151
0.000000	2252.531250	179.658325
0.000000	2251.654297	162.515366
0.000000	2250.777344	179.586151
0.000000	2249.900391	151.050064
0.000000	2249.023438	196.610550
0.000000	2248.145508	170.931320
0.000000	2247.267578	173.745209
0.000000	2246.389648	168.014832
0.000000	2245.511719	167.981018
0.000000	2244.633789	170.793762
0.000000	2243.754883	184.989319
0.000000	2242.876953	156.497879
0.000000	2241.998047	179.225082
0.000000	2241.119141	139.369186
0.000000	2240.240234	184.840210
0.000000	2239.360352	119.411125
0.000000	2238.481445	181.923096
0.000000	2237.601563	142.098724
0.000000	2236.721680	193.215256
0.000000	2235.841797	178.972092
0.000000	2234.960938	176.095688
0.000000	2234.081055	178.899765
0.000000	2233.200195	195.898239
0.000000	2232.319336	144.765060
0.000000	2231.438477	192.981049
0.000000	2230.557617	184.429840
0.000000	2229.675781	147.514008
0.000000	2228.794922	187.191422
0.000000	2227.913086	218.345749
0.000000	2227.031250	175.775253
0.000000	2226.149414	201.250214
0.000000	2225.267578	204.043350
0.000000	2224.384766	181.335083
0.000000	2223.501953	186.963882
0.000000	2222.620117	201.086990
0.000000	2221.736328	172.729813
0.000000	2220.853516	189.681107
0.000000	2219.970703	169.829178
0.000000	2219.086914	226.392914
0.000000	2218.203125	186.736191
0.000000	2217.319336	169.725662
0.000000	2216.435547	175.347519
0.000000	2215.551758	178.139465
0.000000	2214.666992	183.757294
0.000000	2213.783203	172.414047
0.000000	2212.898438	211.941330
0.000000	2212.013672	192.121002
0.000000	2211.127930	189.257126
0.000000	2210.243164	197.691040
0.000000	2209.357422	203.297897
0.000000	2208.471680	200.433441
0.000000	2207.585938	149.588806
0.000000	2206.700195	166.489426
0.000000	2205.814453	166.455444
0.000000	2204.927734	197.449188
0.000000	2204.041016	169.207596
0.000000	2203.154297	157.894836
0.000000	2202.267578	222.698990
0.000000	2201.380859	138.101517
0.000000	2200.493164	228.243591
0.000000	2199.606445	202.841690
0.000000	2198.718750	216.883545
0.000000	2197.831055	149.252930
0.000000	2196.943359	199.901672
0.000000	2196.054688	197.045807
0.000000	2195.166992	202.634171
0.000000	2194.278320	191.337509
0.000000	2193.389648	191.298294
0.000000	2192.500977	185.633804
0.000000	2191.611328	222.152466
0.000000	2190.722656	216.483948
0.000000	2189.833008	174.275986
0.000000	2188.943359	177.050537
0.000000	2188.053711	213.540924
0.000000	2187.164063	154.504456
0.000000	2186.273438	182.558670
0.000000	2185.382813	210.601334
0.000000	2184.493164	176.868744
0.000000	2183.601563	179.639252
0.000000	2182.710938	173.989731
0.000000	2181.820313	182.371063
0.000000	2180.928711	179.528397
0.000000	2180.037109	190.709656
0.000000	2179.145508	215.906174
0.000000	2178.253906	190.631119
0.000000	2177.362305	207.408768
0.000000	2176.469727	224.179474
0.000000	2175.578125	179.306610
0.000000	2174.685547	204.479431
0.000000	2173.792969	212.838776
0.000000	2172.899414	215.594803
0.000000	2172.006836	198.754166
0.000000	2171.113281	167.926590
0.000000	2170.219727	223.855881
0.000000	2169.326172	201.428680
0.000000	2168.432617	151.040298
0.000000	2167.538086	229.310074
0.000000	2166.644531	162.161392
0.000000	2165.750000	218.034027
0.000000	2164.855469	173.273239
0.000000	2163.960938	187.208145
0.000000	2163.065430	170.407959
0.000000	2162.170898	181.544647
0.000000	2161.275391	192.676712
0.000000	2160.379883	226.138855
0.000000	2159.484375	217.718216
0.000000	2158.588867	223.254440
0.000000	2157.692383	178.566528
0.000000	2156.795898	189.687576
0.000000	2155.899414	214.748734
0.000000	2155.002930	189.608871
0.000000	2154.106445	214.659592
0.000000	2153.209961	211.827820
0.000000	2152.312500	169.984375
0.000000	2151.415039	214.525879
0.000000	2150.517578	183.841110
0.000000	2149.620117	161.523758
0.000000	2148.721680	222.745056
0.000000	2147.824219	194.861389
0.000000	2146.925781	150.290359
0.000000	2146.027344	230.953781
0.000000	2145.128906	264.289673
0.000000	2144.229492	152.977951
0.000000	2143.331055	186.316132
0.000000	2142.431641	241.882492
0.000000	2141.532227	244.611755
0.000000	2140.632813	227.886169
0.000000	2139.732422	197.274933
0.000000	2138.833008	194.455841
0.000000	2137.932617	213.856796
0.000000	2137.032227	194.374710
0.000000	2136.131836	210.991333
0.000000	2135.231445	222.049774
0.000000	2134.330078	235.878601
0.000000	2133.428711	191.437927
0.000000	2132.528320	196.945679
0.000000	2131.626953	180.264694
0.000000	2130.724609	152.499771
0.000000	2129.823242	202.366455
0.000000	2128.920898	227.268173
0.000000	2128.018555	216.136688
0.000000	2127.116211	185.617004
0.000000	2126.213867	232.665131
0.000000	2125.310547	246.462616
0.000000	2124.408203	232.567673
0.000000	2123.504883	224.214691
0.000000	2122.601563	190.957657
0.000000	2121.698242	204.752228
0.000000	2120.793945	193.643921
0.000000	2119.890625	201.900589
0.000000	2118.986328	188.032303
0.000000	2118.082031	226.697250
0.000000	2117.177734	221.121613
0.000000	2116.272461	248.709564
0.000000	2115.368164	215.503006
0.000000	2114.462891	196.121780
0.000000	2113.557617	243.029419
0.000000	2112.652344	201.561569
0.000000	2111.747070	229.124542
0.000000	2110.840820	209.756653
0.000000	2109.934570	173.840637
0.000000	2109.028320	217.944763
0.000000	2108.122070	190.316742
0.000000	2107.215820	234.398788
0.000000	2106.308594	195.750687
0.000000	2105.402344	223.274139
0.000000	2104.495117	234.250641
0.000000	2103.587891	264.509674
0.000000	2102.679688	225.887695
0.000000	2101.772461	242.364929
0.000000	2100.864258	236.806656
0.000000	2099.956055	242.262650
0.000000	2099.047852	239.459106
0.000000	2098.139648	225.649429
0.000000	2097.230469	220.099289
0.000000	2096.322266	228.304764
0.000000	2095.413086	178.755112
0.000000	2094.503906	164.969833
0.000000	2093.593750	217.164352
0.000000	2092.684570	211.621765
0.000000	2091.774414	230.811264
0.000000	2090.864258	211.532227
0.000000	2089.954102	208.740860
0.000000	2089.043945	227.918716
0.000000	2088.133789	285.524414
0.000000	2087.222656	225.077347
0.000000	2086.311523	255.216553
0.000000	2085.400391	268.880859
0.000000	2084.489258	279.796265
0.000000	2083.577148	216.658997
0.000000	2082.666016	276.935669
0.000000	2081.753906	252.204712
0.000000	2080.841797	243.928864
0.000000	2079.929688	279.499573
0.000000	2079.016602	271.221405
0.000000	2078.103516	241.034485
0.000000	2077.191406	249.198608
0.000000	2076.278320	292.951477
0.000000	2075.364258	320.262054
0.000000	2074.451172	276.406738
0.000000	2073.537109	309.181396
0.000000	2072.623047	240.727203
0.000000	2071.708984	317.254700
0.000000	2070.794922	308.984070
0.000000	2069.880859	265.177643
0.000000	2068.965820	273.320801
0.000000	2068.050781	316.984589
0.000000	2067.135742	297.792755
0.000000	2066.220703	319.580963
0.000000	2065.305664	300.396698
0.000000	2064.389648	305.793243
0.000000	2063.473633	302.998291
0.000000	2062.557617	319.308441
0.000000	2061.641602	286.497711
0.000000	2060.724609	294.620453
0.000000	2059.808594	286.375397
0.000000	2058.891602	239.958603
0.000000	2057.974609	234.454910
0.000000	2057.057617	228.953537
0.000000	2056.139648	250.705048
0.000000	2055.222656	256.100403
0.000000	2054.304688	250.597855
0.000000	2053.386719	269.607391
0.000000	2052.468750	285.886078
0.000000	2051.549805	280.380615
0.000000	2050.631836	288.485260
0.000000	2049.712891	263.934723
0.000000	2048.793945	255.717010
0.000000	2047.874023	255.662231
0.000000	2046.955078	233.853622
0.000000	2046.035156	231.084854
0.000000	2045.115234	258.215942
0.000000	2044.195313	260.878052
0.000000	2043.275391	263.538971
0.000000	2042.355469	279.780334
0.000000	2041.434570	282.436005
0.000000	2040.513672	276.945099
0.000000	2039.592773	276.885620
0.000000	2038.671875	255.114304
0.000000	2037.750000	268.626495
0.000000	2036.829102	263.143158
0.000000	2035.907227	227.827560
0.000000	2034.985352	276.588287
0.000000	2034.063477	273.817719
0.000000	2033.140625	290.021729
0.000000	2032.217773	289.959351
0.000000	2031.294922	303.443512
0.000000	2030.372070	251.912262
0.000000	2029.449219	270.815063
0.000000	2028.526367	287.002167
0.000000	2027.602539	259.870483
0.000000	2026.678711	257.108093
0.000000	2025.754883	300.345764
0.000000	2024.831055	292.165314
0.000000	2023.906250	248.827896
0.000000	2022.981445	243.366089
0.000000	2022.056641	251.424026
0.000000	2021.131836	259.478485
0.000000	2020.207031	264.827087
0.000000	2019.281250	226.945648
0.000000	2018.356445	267.413879
0.000000	2017.430664	234.949326
0.000000	2016.504883	275.398315
0.000000	2015.578125	253.743591
0.000000	2014.652344	250.989914
0.000000	2013.725586	229.349792
0.000000	2012.798828	307.532013
0.000000	2011.872070	242.735901
0.000000	2010.944336	280.434113
0.000000	2010.017578	299.244720
0.000000	2009.089844	258.750214
0.000000	2008.162109	301.809875
0.000000	2007.234375	264.026428
0.000000	2006.305664	272.049927
0.000000	2005.377930	290.841827
0.000000	2004.449219	282.701569
0.000000	2003.520508	263.797607
0.000000	2002.591797	220.680725
0.000000	2001.662109	244.848663
0.000000	2000.732422	215.204865
0.000000	1999.803711	247.431870
0.000000	1998.874023	301.156006
0.000000	1997.943359	279.584137
0.000000	1997.013672	327.902466
0.000000	1996.083008	252.591278
0.000000	1995.152344	241.790161
0.000000	1994.221680	265.911377
0.000000	1993.291016	249.741226
0.000000	1992.359375	295.328613
0.000000	1991.428711	255.001038
0.000000	1990.497070	254.945557
0.000000	1989.565430	257.573120
0.000000	1988.632813	295.071625
0.000000	1987.701172	254.779099
0.000000	1986.768555	257.404907
0.000000	1985.835938	254.668121
0.000000	1984.903320	294.814636
0.000000	1983.969727	300.109467
0.000000	1983.037109	289.328186
0.000000	1982.103516	246.411011
0.000000	1981.169922	297.235382
0.000000	1980.236328	286.461700
0.000000	1979.301758	259.632904
0.000000	1978.368164	278.308533
0.000000	1977.433594	267.545929
0.000000	1976.499023	272.837280
0.000000	1975.563477	243.360474
0.000000	1974.628906	310.149963
0.000000	1973.693359	302.062836
0.000000	1972.757813	315.359497
0.000000	1971.822266	261.851471
0.000000	1970.886719	272.479675
0.000000	1969.951172	275.090851
0.000000	1969.014648	296.392273
0.000000	1968.078125	266.961609
0.000000	1967.141602	269.572205
0.000000	1966.204102	242.828720
0.000000	1965.267578	298.800659
0.000000	1964.330078	250.724182
0.000000	1963.392578	282.669586
0.000000	1962.455078	306.602600
0.000000	1961.516602	231.900681
0.000000	1960.579102	263.829132
0.000000	1959.640625	290.414825
0.000000	1958.702148	239.739441
0.000000	1957.763672	292.950592
0.000000	1956.824219	311.524506
0.000000	1955.884766	266.201782
0.000000	1954.946289	271.466217
0.000000	1954.006836	258.102325
0.000000	1953.066406	260.705902
0.000000	1952.126953	276.606689
0.000000	1951.186523	257.932220
0.000000	1950.246094	247.241455
0.000000	1949.305664	279.082184
0.000000	1948.364258	297.622192
0.000000	1947.423828	292.243195
0.000000	1946.482422	273.585693
0.000000	1945.541016	246.969589
0.000000	1944.599609	300.015259
0.000000	1943.657227	265.441772
0.000000	1942.715820	238.844955
0.000000	1941.773438	289.204041
0.000000	1940.831055	249.350357
0.000000	1939.888672	302.336975
0.000000	1938.945313	273.103882
0.000000	1938.001953	241.232727
0.000000	1937.058594	291.535675
0.000000	1936.115234	317.968750
0.000000	1935.171875	278.161255
0.000000	1934.227539	278.099823
0.000000	1933.284180	285.982391
0.000000	1932.339844	264.740021
0.000000	1931.394531	283.209229
0.000000	1930.450195	277.854187
0.000000	1929.504883	277.792786
0.000000	1928.560547	275.086304
0.000000	1927.615234	280.314453
0.000000	1926.668945	272.320770
0.000000	1925.723633	288.120361
0.000000	1924.777344	253.701233
0.000000	1923.831055	277.424286
0.000000	1922.884766	269.438232
0.000000	1921.938477	298.429199
0.000000	1920.991211	314.205383
0.000000	1920.043945	271.899017
0.000000	1919.096680	258.642731
0.000000	1918.149414	316.635162
0.000000	1917.202148	279.632385
0.000000	1916.253906	253.195816
0.000000	1915.305664	305.877075
0.000000	1914.357422	274.173798
0.000000	1913.409180	284.655762
0.000000	1912.459961	245.065826
0.000000	1911.511719	258.184082
0.000000	1910.562500	313.439606
0.000000	1909.613281	318.636688
0.000000	1908.663086	281.707031
0.000000	1907.713867	297.437592
0.000000	1906.763672	278.950226
0.000000	1905.813477	305.198425
0.000000	1904.863281	270.934875
0.000000	1903.912109	252.465668
0.000000	1902.961914	286.589935
0.000000	1902.010742	265.496735
0.000000	1901.059570	312.743347
0.000000	1900.107422	304.791168
0.000000	1899.156250	307.350220
0.000000	1898.204102	304.655426
0.000000	1897.251953	280.955750
0.000000	1896.299805	265.142120
0.000000	1895.347656	296.578033
0.000000	1894.394531	296.511902
0.000000	1893.441406	267.588226
0.000000	1892.488281	259.660065
0.000000	1891.535156	312.046997
0.000000	1890.581055	277.895782
0.000000	1889.627930	319.770935
0.000000	1888.673828	262.048798
0.000000	1887.719727	303.908722
0.000000	1886.764648	290.744232
0.000000	1885.810547	303.772949
0.000000	1884.855469	280.141724
0.000000	1883.900391	282.696686
0.000000	1882.945313	280.016479
0.000000	1881.989258	306.117767
0.000000	1881.034180	274.659637
0.000000	1880.078125	274.598175
0.000000	1879.122070	295.453796
0.000000	1878.165039	305.843872
0.000000	1877.208984	313.615784
0.000000	1876.251953	326.609955
0.000000	1875.294922	282.127777
0.000000	1874.337891	274.229431
0.000000	1873.379883	268.945740
0.000000	1872.422852	289.769745
0.000000	1871.464844	302.754547
0.000000	1870.506836	281.811707
0.000000	1869.547852	286.966064
0.000000	1868.589844	271.252502
0.000000	1867.630859	305.090576
0.000000	1866.671875	281.558838
0.000000	1865.712891	286.708496
0.000000	1864.753906	294.461700
0.000000	1863.793945	281.369202
0.000000	1862.833984	315.166870
0.000000	1861.874023	307.283752
0.000000	1860.914063	328.042786
0.000000	1859.953125	312.351440
0.000000	1858.993164	307.076508
0.000000	1858.032227	335.626770
0.000000	1857.070313	343.354797
0.000000	1856.109375	296.466949
0.000000	1855.147461	283.400208
0.000000	1854.186523	293.734070
0.000000	1853.224609	337.848022
0.000000	1852.261719	301.396484
0.000000	1851.299805	290.937927
0.000000	1850.336914	322.037262
0.000000	1849.374023	321.964691
0.000000	1848.411133	277.761719
0.000000	1847.448242	282.889709
0.000000	1846.484375	326.936371
0.000000	1845.520508	293.138672
0.000000	1844.556641	308.633911
0.000000	1843.592773	300.785309
0.000000	1842.627930	316.271729
0.000000	1841.663086	269.547791
0.000000	1840.699219	303.172791
0.000000	1839.733398	349.735718
0.000000	1838.768555	313.395996
0.000000	1837.802734	352.167114
0.000000	1836.837891	323.609802
0.000000	1835.871094	274.359070
0.000000	1834.905273	323.463440
0.000000	1833.939453	294.931915
0.000000	1832.972656	333.663208
0.000000	1832.005859	312.900085
0.000000	1831.039063	325.756073
0.000000	1830.071289	299.834503
0.000000	1829.104492	279.093018
0.000000	1828.136719	284.197021
0.000000	1827.168945	307.379822
0.000000	1826.200195	309.892578
0.000000	1825.232422	299.494904
0.000000	1824.263672	314.914581
0.000000	1823.294922	322.585205
0.000000	1822.326172	265.749908
0.000000	1821.356445	340.495392
0.000000	1820.387695	322.365631
0.000000	1819.417969	314.557434
0.000000	1818.448242	306.752747
0.000000	1817.477539	322.146088
0.000000	1816.507813	350.415283
0.000000	1815.537109	319.423706
0.000000	1814.566406	319.351105
0.000000	1813.595703	352.751221
0.000000	1812.624023	326.928589
0.000000	1811.653320	293.396729
0.000000	1810.681641	370.522064
0.000000	1809.709961	336.995453
0.000000	1808.737305	300.912170
0.000000	1807.765625	326.556793
0.000000	1806.792969	300.775146
0.000000	1805.820313	292.996216
0.000000	1804.847656	349.459717
0.000000	1803.874023	315.983459
0.000000	1802.900391	310.774658
0.000000	1801.926758	323.542816
0.000000	1800.953125	323.469025
0.000000	1799.979492	325.961884
0.000000	1799.004883	348.981903
0.000000	1798.030273	318.116760
0.000000	1797.055664	279.571075
0.000000	1796.081055	343.614410
0.000000	1795.105469	317.898956
0.000000	1794.129883	307.573883
0.000000	1793.154297	325.441315
0.000000	1792.178711	297.185547
0.000000	1791.203125	343.222107
0.000000	1790.226563	304.732025
0.000000	1789.250000	348.185547
0.000000	1788.273438	294.354248
0.000000	1787.296875	350.585297
0.000000	1786.319336	301.894867
0.000000	1785.341797	345.309143
0.000000	1784.364258	332.443787
0.000000	1783.386719	337.481018
0.000000	1782.408203	355.296356
0.000000	1781.429688	314.326904
0.000000	1780.451172	288.705688
0.000000	1779.472656	352.497833
0.000000	1778.494141	326.879578
0.000000	1777.514648	354.889374
0.000000	1776.535156	331.834808
0.000000	1775.555664	344.518646
0.000000	1774.576172	324.028351
0.000000	1773.595703	311.199890
0.000000	1772.615234	306.027985
0.000000	1771.634766	336.553467
0.000000	1770.654297	354.319611
0.000000	1769.672852	364.432129
0.000000	1768.692383	382.183624
0.000000	1767.710938	313.318542
0.000000	1766.728516	369.274353
0.000000	1765.747070	366.643311
0.000000	1764.764648	351.285706
0.000000	1763.782227	346.114960
0.000000	1762.799805	338.402191
0.000000	1761.817383	371.393616
0.000000	1760.833984	330.616821
0.000000	1759.850586	317.827576
0.000000	1758.867188	325.380493
0.000000	1757.883789	287.183807
0.000000	1756.900391	353.180084
0.000000	1755.916016	342.937592
0.000000	1754.931641	335.239441
0.000000	1753.947266	358.014130
0.000000	1752.961914	357.931549
0.000000	1751.976563	342.621368
0.000000	1750.991211	334.930267
0.000000	1750.005859	312.022095
0.000000	1749.020508	311.950073
0.000000	1748.034180	347.376343
0.000000	1747.047852	332.086090
0.000000	1746.061523	362.422424
0.000000	1745.075195	352.203369
0.000000	1744.087891	352.121948
0.000000	1743.101563	374.834564
0.000000	1742.114258	339.298767
0.000000	1741.125977	354.409271
0.000000	1740.138672	364.450928
0.000000	1739.150391	349.184662
0.000000	1738.162109	371.871490
0.000000	1737.173828	381.902039
0.000000	1736.185547	353.999359
0.000000	1735.196289	384.253174
0.000000	1734.207031	394.273743
0.000000	1733.217773	368.914307
0.000000	1732.227539	305.673187
0.000000	1731.238281	340.961273
0.000000	1730.248047	318.156738
0.000000	1729.257813	358.474457
0.000000	1728.267578	348.295776
0.000000	1727.276367	333.075195
0.000000	1726.285156	305.248077
0.000000	1725.293945	390.929474
0.000000	1724.302734	312.670990
0.000000	1723.311523	352.933655
0.000000	1722.319336	340.249817
0.000000	1721.327148	350.249908
0.000000	1720.334961	314.899750
0.000000	1719.341797	329.938202
0.000000	1718.349609	365.113892
0.000000	1717.356445	365.028992
0.000000	1716.363281	352.359802
0.000000	1715.369141	395.054413
0.000000	1714.375977	332.070374
0.000000	1713.381836	369.719543
0.000000	1712.387695	331.915771
0.000000	1711.392578	382.117035
0.000000	1710.398438	334.274536
0.000000	1709.403320	364.349731
0.000000	1708.408203	389.386536
0.000000	1707.413086	349.110413
0.000000	1706.416992	381.672028
0.000000	1705.420898	404.176758
0.000000	1704.424805	399.062805
0.000000	1703.428711	403.988190
0.000000	1702.432617	361.246735
0.000000	1701.435547	381.226990
0.000000	1700.438477	386.152985
0.000000	1699.441406	371.021393
0.000000	1698.443359	345.871582
0.000000	1697.446289	313.216278
0.000000	1696.448242	345.709961
0.000000	1695.450195	415.756805
0.000000	1694.451172	405.643707
0.000000	1693.453125	373.004822
0.000000	1692.454102	372.917572
0.000000	1691.455078	372.830322
0.000000	1690.455078	380.247986
0.000000	1689.456055	362.651642
0.000000	1688.456055	352.564911
0.000000	1687.456055	409.979462
0.000000	1686.456055	329.906189
0.000000	1685.455078	349.818512
0.000000	1684.454102	362.227142
0.000000	1683.453125	349.654572
0.000000	1682.452148	402.008484
0.000000	1681.451172	381.943329
0.000000	1680.449219	371.870636
0.000000	1679.447266	414.201630
0.000000	1678.445313	389.158386
0.000000	1677.442383	404.031158
0.000000	1676.440430	406.429749
0.000000	1675.437500	401.348602
0.000000	1674.433594	356.393616
0.000000	1673.430664	378.734985
0.000000	1672.426758	368.681610
0.000000	1671.422852	418.405060
0.000000	1670.418945	383.447815
0.000000	1669.415039	360.953613
0.000000	1668.410156	353.402466
0.000000	1667.405273	333.414032
0.000000	1666.400391	343.285889
0.000000	1665.395508	382.996979
0.000000	1664.389648	382.906799
0.000000	1663.384766	402.703217
0.000000	1662.377930	365.329803
0.000000	1661.372070	404.998138
0.000000	1660.366211	375.093933
0.000000	1659.359375	419.708160
0.000000	1658.352539	360.019745
0.000000	1657.344727	382.275604
0.000000	1656.337891	402.039246
0.000000	1655.330078	439.161469
0.000000	1654.322266	372.082886
0.000000	1653.314453	374.475037
0.000000	1652.305664	426.453644
0.000000	1651.296875	404.043762
0.000000	1650.288086	376.688019
0.000000	1649.279297	413.763397
0.000000	1648.270508	393.849304
0.000000	1647.260742	433.379486
0.000000	1646.250977	371.380310
0.000000	1645.241211	396.045288
0.000000	1644.230469	373.679352
0.000000	1643.220703	440.391968
0.000000	1642.209961	346.293732
0.000000	1641.198242	395.670593
0.000000	1640.187500	402.993958
0.000000	1639.175781	422.672699
0.000000	1638.164063	417.630219
0.000000	1637.152344	402.707672
0.000000	1636.140625	414.962280
0.000000	1635.127930	409.925079
0.000000	1634.115234	436.985138
0.000000	1633.102539	409.730682
0.000000	1632.089844	394.827454
0.000000	1631.076172	399.667969
0.000000	1630.062500	414.372131
0.000000	1629.048828	399.478271
0.000000	1628.034180	401.848755
0.000000	1627.020508	455.977692
0.000000	1626.005859	406.586182
0.000000	1624.991211	411.416718
0.000000	1623.975586	416.244934
0.000000	1622.960938	440.769989
0.000000	1621.945313	438.203369
0.000000	1620.929688	455.327789
0.000000	1619.913086	452.758820
0.000000	1618.897461	418.210236
0.000000	1617.880859	425.489136
0.000000	1616.864258	422.928955
0.000000	1615.846680	454.786194
0.000000	1614.830078	435.016144
0.000000	1613.812500	459.483856
0.000000	1612.794922	439.721985
0.000000	1611.776367	451.896973
0.000000	1610.758789	432.146240
0.000000	1609.740234	454.136322
0.000000	1608.721680	431.940155
0.000000	1607.702148	422.022614
